#Drehschieberpumpe Leckratenmessung p_G = 10 mbar
#t[s]	p_1[mbar]	p_2[mbar]	p_3[mbar]
10      12.7
20      14.9
30      17.0
40      19.1
50      21.3
60      24.0
70      26.6
80      29.1
90      31.3
100     33.5
110     35.3
120     37.2
130     39.1
140     41.4
150     44.4
160     47.0
170     49.6
180     52.1
190     54.6
200     56.9